# time(ps) 	kappa_vv_mean	kappa_vv_upper	kappa_vv_lower
0.000000e+00	0.000000e+00	0.000000e+00	0.000000e+00
1.000000e-03	2.721845e-16	2.721845e-16	2.721845e-16
2.000000e-03	5.437288e-16	5.437288e-16	5.437288e-16
3.000000e-03	8.139956e-16	8.139956e-16	8.139956e-16
4.000000e-03	1.082355e-15	1.082355e-15	1.082355e-15
5.000000e-03	1.348189e-15	1.348189e-15	1.348189e-15
6.000000e-03	1.610893e-15	1.610893e-15	1.610893e-15
7.000000e-03	1.869883e-15	1.869883e-15	1.869883e-15
8.000000e-03	2.124595e-15	2.124595e-15	2.124595e-15
9.000000e-03	2.374488e-15	2.374488e-15	2.374488e-15
1.000000e-02	2.619052e-15	2.619052e-15	2.619052e-15
1.100000e-02	2.857801e-15	2.857801e-15	2.857801e-15
1.200000e-02	3.090286e-15	3.090286e-15	3.090286e-15
1.300000e-02	3.316087e-15	3.316087e-15	3.316087e-15
1.400000e-02	3.534820e-15	3.534820e-15	3.534820e-15
1.500000e-02	3.746136e-15	3.746136e-15	3.746136e-15
1.600000e-02	3.949723e-15	3.949723e-15	3.949723e-15
1.700000e-02	4.145306e-15	4.145306e-15	4.145306e-15
1.800000e-02	4.332645e-15	4.332645e-15	4.332645e-15
1.900000e-02	4.511540e-15	4.511540e-15	4.511540e-15
2.000000e-02	4.681826e-15	4.681826e-15	4.681826e-15
2.100000e-02	4.843372e-15	4.843372e-15	4.843372e-15
2.200000e-02	4.996084e-15	4.996084e-15	4.996084e-15
2.300000e-02	5.139902e-15	5.139902e-15	5.139902e-15
2.400000e-02	5.274800e-15	5.274800e-15	5.274800e-15
2.500000e-02	5.400780e-15	5.400780e-15	5.400780e-15
2.600000e-02	5.517877e-15	5.517877e-15	5.517877e-15
2.700000e-02	5.626154e-15	5.626154e-15	5.626154e-15
2.800000e-02	5.725701e-15	5.725701e-15	5.725701e-15
2.900000e-02	5.816633e-15	5.816633e-15	5.816633e-15
3.000000e-02	5.899088e-15	5.899088e-15	5.899088e-15
3.100000e-02	5.973226e-15	5.973226e-15	5.973226e-15
3.200000e-02	6.039227e-15	6.039227e-15	6.039227e-15
3.300000e-02	6.097290e-15	6.097290e-15	6.097290e-15
3.400000e-02	6.147628e-15	6.147628e-15	6.147628e-15
3.500000e-02	6.190472e-15	6.190472e-15	6.190472e-15
3.600000e-02	6.226062e-15	6.226062e-15	6.226062e-15
3.700000e-02	6.254653e-15	6.254653e-15	6.254653e-15
3.800000e-02	6.276506e-15	6.276506e-15	6.276506e-15
3.900000e-02	6.291894e-15	6.291894e-15	6.291894e-15
4.000000e-02	6.301093e-15	6.301093e-15	6.301093e-15
4.100000e-02	6.304385e-15	6.304385e-15	6.304385e-15
4.200000e-02	6.302058e-15	6.302058e-15	6.302058e-15
4.300000e-02	6.294400e-15	6.294400e-15	6.294400e-15
4.400000e-02	6.281700e-15	6.281700e-15	6.281700e-15
4.500000e-02	6.264249e-15	6.264249e-15	6.264249e-15
4.600000e-02	6.242335e-15	6.242335e-15	6.242335e-15
4.700000e-02	6.216247e-15	6.216247e-15	6.216247e-15
4.800000e-02	6.186266e-15	6.186266e-15	6.186266e-15
4.900000e-02	6.152675e-15	6.152675e-15	6.152675e-15
5.000000e-02	6.115748e-15	6.115748e-15	6.115748e-15
5.100000e-02	6.075756e-15	6.075756e-15	6.075756e-15
5.200000e-02	6.032963e-15	6.032963e-15	6.032963e-15
5.300000e-02	5.987628e-15	5.987628e-15	5.987628e-15
5.400000e-02	5.940000e-15	5.940000e-15	5.940000e-15
5.500000e-02	5.890323e-15	5.890323e-15	5.890323e-15
5.600000e-02	5.838832e-15	5.838832e-15	5.838832e-15
5.700000e-02	5.785754e-15	5.785754e-15	5.785754e-15
5.800000e-02	5.731307e-15	5.731307e-15	5.731307e-15
5.900000e-02	5.675702e-15	5.675702e-15	5.675702e-15
6.000000e-02	5.619137e-15	5.619137e-15	5.619137e-15
6.100000e-02	5.561805e-15	5.561805e-15	5.561805e-15
6.200000e-02	5.503887e-15	5.503887e-15	5.503887e-15
6.300000e-02	5.445556e-15	5.445556e-15	5.445556e-15
6.400000e-02	5.386974e-15	5.386974e-15	5.386974e-15
6.500000e-02	5.328295e-15	5.328295e-15	5.328295e-15
6.600000e-02	5.269663e-15	5.269663e-15	5.269663e-15
6.700000e-02	5.211214e-15	5.211214e-15	5.211214e-15
6.800000e-02	5.153071e-15	5.153071e-15	5.153071e-15
6.900000e-02	5.095353e-15	5.095353e-15	5.095353e-15
7.000000e-02	5.038167e-15	5.038167e-15	5.038167e-15
7.100000e-02	4.981610e-15	4.981610e-15	4.981610e-15
7.200000e-02	4.925773e-15	4.925773e-15	4.925773e-15
7.300000e-02	4.870738e-15	4.870738e-15	4.870738e-15
7.400000e-02	4.816578e-15	4.816578e-15	4.816578e-15
7.500000e-02	4.763359e-15	4.763359e-15	4.763359e-15
7.600000e-02	4.711137e-15	4.711137e-15	4.711137e-15
7.700000e-02	4.659963e-15	4.659963e-15	4.659963e-15
7.800000e-02	4.609880e-15	4.609880e-15	4.609880e-15
7.900000e-02	4.560924e-15	4.560924e-15	4.560924e-15
8.000000e-02	4.513125e-15	4.513125e-15	4.513125e-15
8.100000e-02	4.466504e-15	4.466504e-15	4.466504e-15
8.200000e-02	4.421080e-15	4.421080e-15	4.421080e-15
8.300000e-02	4.376862e-15	4.376862e-15	4.376862e-15
8.400000e-02	4.333857e-15	4.333857e-15	4.333857e-15
8.500000e-02	4.292064e-15	4.292064e-15	4.292064e-15
8.600000e-02	4.251480e-15	4.251480e-15	4.251480e-15
8.700000e-02	4.212095e-15	4.212095e-15	4.212095e-15
8.800000e-02	4.173897e-15	4.173897e-15	4.173897e-15
8.900000e-02	4.136867e-15	4.136867e-15	4.136867e-15
9.000000e-02	4.100985e-15	4.100985e-15	4.100985e-15
9.100000e-02	4.066228e-15	4.066228e-15	4.066228e-15
9.200000e-02	4.032567e-15	4.032567e-15	4.032567e-15
9.300000e-02	3.999975e-15	3.999975e-15	3.999975e-15
9.400000e-02	3.968417e-15	3.968417e-15	3.968417e-15
9.500000e-02	3.937862e-15	3.937862e-15	3.937862e-15
9.600000e-02	3.908272e-15	3.908272e-15	3.908272e-15
9.700000e-02	3.879612e-15	3.879612e-15	3.879612e-15
9.800000e-02	3.851842e-15	3.851842e-15	3.851842e-15
9.900000e-02	3.824925e-15	3.824925e-15	3.824925e-15
1.000000e-01	3.798820e-15	3.798820e-15	3.798820e-15
1.010000e-01	3.773488e-15	3.773488e-15	3.773488e-15
1.020000e-01	3.748889e-15	3.748889e-15	3.748889e-15
1.030000e-01	3.724984e-15	3.724984e-15	3.724984e-15
1.040000e-01	3.701734e-15	3.701734e-15	3.701734e-15
1.050000e-01	3.679100e-15	3.679100e-15	3.679100e-15
1.060000e-01	3.657045e-15	3.657045e-15	3.657045e-15
1.070000e-01	3.635532e-15	3.635532e-15	3.635532e-15
1.080000e-01	3.614528e-15	3.614528e-15	3.614528e-15
1.090000e-01	3.593997e-15	3.593997e-15	3.593997e-15
1.100000e-01	3.573909e-15	3.573909e-15	3.573909e-15
1.110000e-01	3.554232e-15	3.554232e-15	3.554232e-15
1.120000e-01	3.534939e-15	3.534939e-15	3.534939e-15
1.130000e-01	3.516003e-15	3.516003e-15	3.516003e-15
1.140000e-01	3.497399e-15	3.497399e-15	3.497399e-15
1.150000e-01	3.479106e-15	3.479106e-15	3.479106e-15
1.160000e-01	3.461102e-15	3.461102e-15	3.461102e-15
1.170000e-01	3.443369e-15	3.443369e-15	3.443369e-15
1.180000e-01	3.425893e-15	3.425893e-15	3.425893e-15
1.190000e-01	3.408658e-15	3.408658e-15	3.408658e-15
1.200000e-01	3.391654e-15	3.391654e-15	3.391654e-15
1.210000e-01	3.374871e-15	3.374871e-15	3.374871e-15
1.220000e-01	3.358303e-15	3.358303e-15	3.358303e-15
1.230000e-01	3.341944e-15	3.341944e-15	3.341944e-15
1.240000e-01	3.325791e-15	3.325791e-15	3.325791e-15
1.250000e-01	3.309845e-15	3.309845e-15	3.309845e-15
1.260000e-01	3.294105e-15	3.294105e-15	3.294105e-15
1.270000e-01	3.278574e-15	3.278574e-15	3.278574e-15
1.280000e-01	3.263259e-15	3.263259e-15	3.263259e-15
1.290000e-01	3.248164e-15	3.248164e-15	3.248164e-15
1.300000e-01	3.233299e-15	3.233299e-15	3.233299e-15
1.310000e-01	3.218672e-15	3.218672e-15	3.218672e-15
1.320000e-01	3.204295e-15	3.204295e-15	3.204295e-15
1.330000e-01	3.190179e-15	3.190179e-15	3.190179e-15
1.340000e-01	3.176338e-15	3.176338e-15	3.176338e-15
1.350000e-01	3.162787e-15	3.162787e-15	3.162787e-15
1.360000e-01	3.149539e-15	3.149539e-15	3.149539e-15
1.370000e-01	3.136612e-15	3.136612e-15	3.136612e-15
1.380000e-01	3.124021e-15	3.124021e-15	3.124021e-15
1.390000e-01	3.111784e-15	3.111784e-15	3.111784e-15
1.400000e-01	3.099917e-15	3.099917e-15	3.099917e-15
1.410000e-01	3.088438e-15	3.088438e-15	3.088438e-15
1.420000e-01	3.077364e-15	3.077364e-15	3.077364e-15
1.430000e-01	3.066713e-15	3.066713e-15	3.066713e-15
1.440000e-01	3.056502e-15	3.056502e-15	3.056502e-15
1.450000e-01	3.046748e-15	3.046748e-15	3.046748e-15
1.460000e-01	3.037467e-15	3.037467e-15	3.037467e-15
1.470000e-01	3.028675e-15	3.028675e-15	3.028675e-15
1.480000e-01	3.020388e-15	3.020388e-15	3.020388e-15
1.490000e-01	3.012620e-15	3.012620e-15	3.012620e-15
1.500000e-01	3.005385e-15	3.005385e-15	3.005385e-15
1.510000e-01	2.998695e-15	2.998695e-15	2.998695e-15
1.520000e-01	2.992563e-15	2.992563e-15	2.992563e-15
1.530000e-01	2.986999e-15	2.986999e-15	2.986999e-15
1.540000e-01	2.982014e-15	2.982014e-15	2.982014e-15
1.550000e-01	2.977614e-15	2.977614e-15	2.977614e-15
1.560000e-01	2.973808e-15	2.973808e-15	2.973808e-15
1.570000e-01	2.970600e-15	2.970600e-15	2.970600e-15
1.580000e-01	2.967996e-15	2.967996e-15	2.967996e-15
1.590000e-01	2.965998e-15	2.965998e-15	2.965998e-15
1.600000e-01	2.964608e-15	2.964608e-15	2.964608e-15
1.610000e-01	2.963824e-15	2.963824e-15	2.963824e-15
1.620000e-01	2.963647e-15	2.963647e-15	2.963647e-15
1.630000e-01	2.964072e-15	2.964072e-15	2.964072e-15
1.640000e-01	2.965094e-15	2.965094e-15	2.965094e-15
1.650000e-01	2.966707e-15	2.966707e-15	2.966707e-15
1.660000e-01	2.968903e-15	2.968903e-15	2.968903e-15
1.670000e-01	2.971672e-15	2.971672e-15	2.971672e-15
1.680000e-01	2.975003e-15	2.975003e-15	2.975003e-15
1.690000e-01	2.978883e-15	2.978883e-15	2.978883e-15
1.700000e-01	2.983297e-15	2.983297e-15	2.983297e-15
1.710000e-01	2.988229e-15	2.988229e-15	2.988229e-15
1.720000e-01	2.993662e-15	2.993662e-15	2.993662e-15
1.730000e-01	2.999576e-15	2.999576e-15	2.999576e-15
1.740000e-01	3.005951e-15	3.005951e-15	3.005951e-15
1.750000e-01	3.012765e-15	3.012765e-15	3.012765e-15
1.760000e-01	3.019995e-15	3.019995e-15	3.019995e-15
1.770000e-01	3.027616e-15	3.027616e-15	3.027616e-15
1.780000e-01	3.035603e-15	3.035603e-15	3.035603e-15
1.790000e-01	3.043927e-15	3.043927e-15	3.043927e-15
1.800000e-01	3.052563e-15	3.052563e-15	3.052563e-15
1.810000e-01	3.061479e-15	3.061479e-15	3.061479e-15
1.820000e-01	3.070648e-15	3.070648e-15	3.070648e-15
1.830000e-01	3.080037e-15	3.080037e-15	3.080037e-15
1.840000e-01	3.089616e-15	3.089616e-15	3.089616e-15
1.850000e-01	3.099352e-15	3.099352e-15	3.099352e-15
1.860000e-01	3.109214e-15	3.109214e-15	3.109214e-15
1.870000e-01	3.119167e-15	3.119167e-15	3.119167e-15
1.880000e-01	3.129180e-15	3.129180e-15	3.129180e-15
1.890000e-01	3.139219e-15	3.139219e-15	3.139219e-15
1.900000e-01	3.149250e-15	3.149250e-15	3.149250e-15
1.910000e-01	3.159241e-15	3.159241e-15	3.159241e-15
1.920000e-01	3.169158e-15	3.169158e-15	3.169158e-15
1.930000e-01	3.178968e-15	3.178968e-15	3.178968e-15
1.940000e-01	3.188641e-15	3.188641e-15	3.188641e-15
1.950000e-01	3.198143e-15	3.198143e-15	3.198143e-15
1.960000e-01	3.207445e-15	3.207445e-15	3.207445e-15
1.970000e-01	3.216516e-15	3.216516e-15	3.216516e-15
1.980000e-01	3.225327e-15	3.225327e-15	3.225327e-15
1.990000e-01	3.233852e-15	3.233852e-15	3.233852e-15
2.000000e-01	3.242062e-15	3.242062e-15	3.242062e-15
2.010000e-01	3.249933e-15	3.249933e-15	3.249933e-15
2.020000e-01	3.257442e-15	3.257442e-15	3.257442e-15
2.030000e-01	3.264565e-15	3.264565e-15	3.264565e-15
2.040000e-01	3.271283e-15	3.271283e-15	3.271283e-15
2.050000e-01	3.277576e-15	3.277576e-15	3.277576e-15
2.060000e-01	3.283427e-15	3.283427e-15	3.283427e-15
2.070000e-01	3.288821e-15	3.288821e-15	3.288821e-15
2.080000e-01	3.293746e-15	3.293746e-15	3.293746e-15
2.090000e-01	3.298189e-15	3.298189e-15	3.298189e-15
2.100000e-01	3.302142e-15	3.302142e-15	3.302142e-15
2.110000e-01	3.305597e-15	3.305597e-15	3.305597e-15
2.120000e-01	3.308549e-15	3.308549e-15	3.308549e-15
2.130000e-01	3.310996e-15	3.310996e-15	3.310996e-15
2.140000e-01	3.312936e-15	3.312936e-15	3.312936e-15
2.150000e-01	3.314370e-15	3.314370e-15	3.314370e-15
2.160000e-01	3.315301e-15	3.315301e-15	3.315301e-15
2.170000e-01	3.315735e-15	3.315735e-15	3.315735e-15
2.180000e-01	3.315679e-15	3.315679e-15	3.315679e-15
2.190000e-01	3.315140e-15	3.315140e-15	3.315140e-15
2.200000e-01	3.314131e-15	3.314131e-15	3.314131e-15
2.210000e-01	3.312662e-15	3.312662e-15	3.312662e-15
2.220000e-01	3.310748e-15	3.310748e-15	3.310748e-15
2.230000e-01	3.308405e-15	3.308405e-15	3.308405e-15
2.240000e-01	3.305648e-15	3.305648e-15	3.305648e-15
2.250000e-01	3.302496e-15	3.302496e-15	3.302496e-15
2.260000e-01	3.298968e-15	3.298968e-15	3.298968e-15
2.270000e-01	3.295083e-15	3.295083e-15	3.295083e-15
2.280000e-01	3.290862e-15	3.290862e-15	3.290862e-15
2.290000e-01	3.286326e-15	3.286326e-15	3.286326e-15
2.300000e-01	3.281498e-15	3.281498e-15	3.281498e-15
2.310000e-01	3.276400e-15	3.276400e-15	3.276400e-15
2.320000e-01	3.271053e-15	3.271053e-15	3.271053e-15
2.330000e-01	3.265481e-15	3.265481e-15	3.265481e-15
2.340000e-01	3.259705e-15	3.259705e-15	3.259705e-15
2.350000e-01	3.253748e-15	3.253748e-15	3.253748e-15
2.360000e-01	3.247632e-15	3.247632e-15	3.247632e-15
2.370000e-01	3.241377e-15	3.241377e-15	3.241377e-15
2.380000e-01	3.235005e-15	3.235005e-15	3.235005e-15
2.390000e-01	3.228535e-15	3.228535e-15	3.228535e-15
2.400000e-01	3.221985e-15	3.221985e-15	3.221985e-15
2.410000e-01	3.215376e-15	3.215376e-15	3.215376e-15
2.420000e-01	3.208722e-15	3.208722e-15	3.208722e-15
2.430000e-01	3.202041e-15	3.202041e-15	3.202041e-15
2.440000e-01	3.195346e-15	3.195346e-15	3.195346e-15
2.450000e-01	3.188652e-15	3.188652e-15	3.188652e-15
2.460000e-01	3.181970e-15	3.181970e-15	3.181970e-15
2.470000e-01	3.175312e-15	3.175312e-15	3.175312e-15
2.480000e-01	3.168688e-15	3.168688e-15	3.168688e-15
2.490000e-01	3.162104e-15	3.162104e-15	3.162104e-15
2.500000e-01	3.155570e-15	3.155570e-15	3.155570e-15
2.510000e-01	3.149089e-15	3.149089e-15	3.149089e-15
2.520000e-01	3.142666e-15	3.142666e-15	3.142666e-15
2.530000e-01	3.136305e-15	3.136305e-15	3.136305e-15
2.540000e-01	3.130007e-15	3.130007e-15	3.130007e-15
2.550000e-01	3.123772e-15	3.123772e-15	3.123772e-15
2.560000e-01	3.117600e-15	3.117600e-15	3.117600e-15
2.570000e-01	3.111488e-15	3.111488e-15	3.111488e-15
2.580000e-01	3.105435e-15	3.105435e-15	3.105435e-15
2.590000e-01	3.099435e-15	3.099435e-15	3.099435e-15
2.600000e-01	3.093485e-15	3.093485e-15	3.093485e-15
2.610000e-01	3.087578e-15	3.087578e-15	3.087578e-15
2.620000e-01	3.081708e-15	3.081708e-15	3.081708e-15
2.630000e-01	3.075868e-15	3.075868e-15	3.075868e-15
2.640000e-01	3.070049e-15	3.070049e-15	3.070049e-15
2.650000e-01	3.064245e-15	3.064245e-15	3.064245e-15
2.660000e-01	3.058445e-15	3.058445e-15	3.058445e-15
2.670000e-01	3.052641e-15	3.052641e-15	3.052641e-15
2.680000e-01	3.046823e-15	3.046823e-15	3.046823e-15
2.690000e-01	3.040983e-15	3.040983e-15	3.040983e-15
2.700000e-01	3.035110e-15	3.035110e-15	3.035110e-15
2.710000e-01	3.029196e-15	3.029196e-15	3.029196e-15
2.720000e-01	3.023230e-15	3.023230e-15	3.023230e-15
2.730000e-01	3.017205e-15	3.017205e-15	3.017205e-15
2.740000e-01	3.011112e-15	3.011112e-15	3.011112e-15
2.750000e-01	3.004942e-15	3.004942e-15	3.004942e-15
2.760000e-01	2.998687e-15	2.998687e-15	2.998687e-15
2.770000e-01	2.992341e-15	2.992341e-15	2.992341e-15
2.780000e-01	2.985897e-15	2.985897e-15	2.985897e-15
2.790000e-01	2.979349e-15	2.979349e-15	2.979349e-15
2.800000e-01	2.972693e-15	2.972693e-15	2.972693e-15
2.810000e-01	2.965923e-15	2.965923e-15	2.965923e-15
2.820000e-01	2.959038e-15	2.959038e-15	2.959038e-15
2.830000e-01	2.952032e-15	2.952032e-15	2.952032e-15
2.840000e-01	2.944907e-15	2.944907e-15	2.944907e-15
2.850000e-01	2.937659e-15	2.937659e-15	2.937659e-15
2.860000e-01	2.930289e-15	2.930289e-15	2.930289e-15
2.870000e-01	2.922799e-15	2.922799e-15	2.922799e-15
2.880000e-01	2.915189e-15	2.915189e-15	2.915189e-15
2.890000e-01	2.907461e-15	2.907461e-15	2.907461e-15
2.900000e-01	2.899619e-15	2.899619e-15	2.899619e-15
2.910000e-01	2.891667e-15	2.891667e-15	2.891667e-15
2.920000e-01	2.883609e-15	2.883609e-15	2.883609e-15
2.930000e-01	2.875450e-15	2.875450e-15	2.875450e-15
2.940000e-01	2.867196e-15	2.867196e-15	2.867196e-15
2.950000e-01	2.858852e-15	2.858852e-15	2.858852e-15
2.960000e-01	2.850424e-15	2.850424e-15	2.850424e-15
2.970000e-01	2.841921e-15	2.841921e-15	2.841921e-15
2.980000e-01	2.833349e-15	2.833349e-15	2.833349e-15
2.990000e-01	2.824715e-15	2.824715e-15	2.824715e-15
3.000000e-01	2.816028e-15	2.816028e-15	2.816028e-15
3.010000e-01	2.807294e-15	2.807294e-15	2.807294e-15
3.020000e-01	2.798522e-15	2.798522e-15	2.798522e-15
3.030000e-01	2.789720e-15	2.789720e-15	2.789720e-15
3.040000e-01	2.780895e-15	2.780895e-15	2.780895e-15
3.050000e-01	2.772057e-15	2.772057e-15	2.772057e-15
3.060000e-01	2.763212e-15	2.763212e-15	2.763212e-15
3.070000e-01	2.754370e-15	2.754370e-15	2.754370e-15
3.080000e-01	2.745538e-15	2.745538e-15	2.745538e-15
3.090000e-01	2.736723e-15	2.736723e-15	2.736723e-15
3.100000e-01	2.727934e-15	2.727934e-15	2.727934e-15
3.110000e-01	2.719179e-15	2.719179e-15	2.719179e-15
3.120000e-01	2.710465e-15	2.710465e-15	2.710465e-15
3.130000e-01	2.701800e-15	2.701800e-15	2.701800e-15
3.140000e-01	2.693190e-15	2.693190e-15	2.693190e-15
3.150000e-01	2.684644e-15	2.684644e-15	2.684644e-15
3.160000e-01	2.676169e-15	2.676169e-15	2.676169e-15
3.170000e-01	2.667772e-15	2.667772e-15	2.667772e-15
3.180000e-01	2.659459e-15	2.659459e-15	2.659459e-15
3.190000e-01	2.651238e-15	2.651238e-15	2.651238e-15
3.200000e-01	2.643116e-15	2.643116e-15	2.643116e-15
3.210000e-01	2.635099e-15	2.635099e-15	2.635099e-15
3.220000e-01	2.627194e-15	2.627194e-15	2.627194e-15
3.230000e-01	2.619407e-15	2.619407e-15	2.619407e-15
3.240000e-01	2.611744e-15	2.611744e-15	2.611744e-15
3.250000e-01	2.604212e-15	2.604212e-15	2.604212e-15
3.260000e-01	2.596815e-15	2.596815e-15	2.596815e-15
3.270000e-01	2.589561e-15	2.589561e-15	2.589561e-15
3.280000e-01	2.582454e-15	2.582454e-15	2.582454e-15
3.290000e-01	2.575499e-15	2.575499e-15	2.575499e-15
3.300000e-01	2.568702e-15	2.568702e-15	2.568702e-15
3.310000e-01	2.562066e-15	2.562066e-15	2.562066e-15
3.320000e-01	2.555596e-15	2.555596e-15	2.555596e-15
3.330000e-01	2.549295e-15	2.549295e-15	2.549295e-15
3.340000e-01	2.543168e-15	2.543168e-15	2.543168e-15
3.350000e-01	2.537216e-15	2.537216e-15	2.537216e-15
3.360000e-01	2.531443e-15	2.531443e-15	2.531443e-15
3.370000e-01	2.525850e-15	2.525850e-15	2.525850e-15
3.380000e-01	2.520439e-15	2.520439e-15	2.520439e-15
3.390000e-01	2.515212e-15	2.515212e-15	2.515212e-15
3.400000e-01	2.510169e-15	2.510169e-15	2.510169e-15
3.410000e-01	2.505310e-15	2.505310e-15	2.505310e-15
3.420000e-01	2.500635e-15	2.500635e-15	2.500635e-15
3.430000e-01	2.496144e-15	2.496144e-15	2.496144e-15
3.440000e-01	2.491835e-15	2.491835e-15	2.491835e-15
3.450000e-01	2.487706e-15	2.487706e-15	2.487706e-15
3.460000e-01	2.483757e-15	2.483757e-15	2.483757e-15
3.470000e-01	2.479983e-15	2.479983e-15	2.479983e-15
3.480000e-01	2.476384e-15	2.476384e-15	2.476384e-15
3.490000e-01	2.472955e-15	2.472955e-15	2.472955e-15
3.500000e-01	2.469693e-15	2.469693e-15	2.469693e-15
3.510000e-01	2.466595e-15	2.466595e-15	2.466595e-15
3.520000e-01	2.463657e-15	2.463657e-15	2.463657e-15
3.530000e-01	2.460875e-15	2.460875e-15	2.460875e-15
3.540000e-01	2.458244e-15	2.458244e-15	2.458244e-15
3.550000e-01	2.455761e-15	2.455761e-15	2.455761e-15
3.560000e-01	2.453421e-15	2.453421e-15	2.453421e-15
3.570000e-01	2.451220e-15	2.451220e-15	2.451220e-15
3.580000e-01	2.449154e-15	2.449154e-15	2.449154e-15
3.590000e-01	2.447218e-15	2.447218e-15	2.447218e-15
3.600000e-01	2.445408e-15	2.445408e-15	2.445408e-15
3.610000e-01	2.443721e-15	2.443721e-15	2.443721e-15
3.620000e-01	2.442152e-15	2.442152e-15	2.442152e-15
3.630000e-01	2.440699e-15	2.440699e-15	2.440699e-15
3.640000e-01	2.439358e-15	2.439358e-15	2.439358e-15
3.650000e-01	2.438126e-15	2.438126e-15	2.438126e-15
3.660000e-01	2.437001e-15	2.437001e-15	2.437001e-15
3.670000e-01	2.435981e-15	2.435981e-15	2.435981e-15
3.680000e-01	2.435063e-15	2.435063e-15	2.435063e-15
3.690000e-01	2.434246e-15	2.434246e-15	2.434246e-15
3.700000e-01	2.433529e-15	2.433529e-15	2.433529e-15
3.710000e-01	2.432912e-15	2.432912e-15	2.432912e-15
3.720000e-01	2.432393e-15	2.432393e-15	2.432393e-15
3.730000e-01	2.431974e-15	2.431974e-15	2.431974e-15
3.740000e-01	2.431655e-15	2.431655e-15	2.431655e-15
3.750000e-01	2.431435e-15	2.431435e-15	2.431435e-15
3.760000e-01	2.431317e-15	2.431317e-15	2.431317e-15
3.770000e-01	2.431301e-15	2.431301e-15	2.431301e-15
3.780000e-01	2.431390e-15	2.431390e-15	2.431390e-15
3.790000e-01	2.431583e-15	2.431583e-15	2.431583e-15
3.800000e-01	2.431885e-15	2.431885e-15	2.431885e-15
3.810000e-01	2.432295e-15	2.432295e-15	2.432295e-15
3.820000e-01	2.432816e-15	2.432816e-15	2.432816e-15
